,Model_time,temp,Acc,delta_temp,CoD
0,1000.0,232.05,0.19,0.0,111.226265
1,1000.0,232.05,0.19,0.0,111.226265
2,1001.0,232.05,0.19,0.0,111.226265
3,1002.0,232.05,0.19,0.0,111.226265
4,1003.0,232.05,0.19,0.0,111.226265
5,1004.0,232.05,0.19,0.0,111.226265
6,1005.0,232.05,0.19,0.0,111.226265
7,1006.0,232.05,0.19,0.0,111.226265
8,1007.0,232.05,0.19,0.0,111.226265
9,1008.0,232.05,0.19,0.0,111.226265
10,1009.0,232.05,0.19,0.0,111.226265
11,1010.0,232.05,0.19,0.0,111.226265
12,1011.0,232.05,0.19,0.0,111.226265
13,1012.0,232.05,0.19,0.0,111.226265
14,1013.0,232.05,0.19,0.0,111.226265
15,1014.0,232.05,0.19,0.0,111.226265
16,1015.0,232.05,0.19,0.0,111.226265
17,1016.0,232.05,0.19,0.0,111.226265
18,1017.0,232.05,0.19,0.0,111.226265
19,1018.0,232.05,0.19,0.0,111.226265
20,1019.0,232.05,0.19,0.0,111.226265
21,1020.0,232.05,0.19,0.0,111.226265
22,1021.0,232.05,0.19,0.0,111.226265
23,1022.0,232.05,0.19,0.0,111.226265
24,1023.0,232.05,0.19,0.0,111.226265
25,1024.0,232.05,0.19,0.0,111.226265
26,1025.0,232.05,0.19,0.0,111.226265
27,1026.0,232.05,0.19,0.0,111.226265
28,1027.0,232.05,0.19,0.0,111.226265
29,1028.0,232.05,0.19,0.0,111.226265
30,1029.0,232.05,0.19,0.0,111.226265
31,1030.0,232.05,0.19,0.0,111.226265
32,1031.0,232.05,0.19,0.0,111.226265
33,1032.0,232.05,0.19,0.0,111.226265
34,1033.0,232.05,0.19,0.0,111.226265
35,1034.0,232.05,0.19,0.0,111.226265
36,1035.0,232.05,0.19,0.0,111.226265
37,1036.0,232.05,0.19,0.0,111.226265
38,1037.0,232.05,0.19,0.0,111.226265
39,1038.0,232.05,0.19,0.0,111.226265
40,1039.0,232.05,0.19,0.0,111.226265
41,1040.0,232.05,0.19,0.0,111.226265
42,1041.0,232.05,0.19,0.0,111.226265
43,1042.0,232.05,0.19,0.0,111.226265
44,1043.0,232.05,0.19,0.0,111.226265
45,1044.0,232.05,0.19,0.0,111.226265
46,1045.0,232.05,0.19,0.0,111.226265
47,1046.0,232.05,0.19,0.0,111.226265
48,1047.0,232.05,0.19,0.0,111.226265
49,1048.0,232.05,0.19,0.0,111.226265
50,1049.0,232.05,0.19,0.0,111.226265
51,1050.0,232.05,0.19,0.0,111.226265
52,1051.0,232.05,0.19,0.0,111.226265
53,1052.0,232.05,0.19,0.0,111.226265
54,1053.0,232.05,0.19,0.0,111.226265
55,1054.0,232.05,0.19,0.0,111.226265
56,1055.0,232.05,0.19,0.0,111.226265
57,1056.0,232.05,0.19,0.0,111.226265
58,1057.0,232.05,0.19,0.0,111.226265
59,1058.0,232.05,0.19,0.0,111.226265
60,1059.0,232.05,0.19,0.0,111.226265
61,1060.0,232.05,0.19,0.0,111.226265
62,1061.0,232.05,0.19,0.0,111.226265
63,1062.0,232.05,0.19,0.0,111.226265
64,1063.0,232.05,0.19,0.0,111.226265
65,1064.0,232.05,0.19,0.0,111.226265
66,1065.0,232.05,0.19,0.0,111.226265
67,1066.0,232.05,0.19,0.0,111.226265
68,1067.0,232.05,0.19,0.0,111.226265
69,1068.0,232.05,0.19,0.0,111.226265
70,1069.0,232.05,0.19,0.0,111.226265
71,1070.0,232.05,0.19,0.0,111.226265
72,1071.0,232.05,0.19,0.0,111.226265
73,1072.0,232.05,0.19,0.0,111.226265
74,1073.0,232.05,0.19,0.0,111.226265
75,1074.0,232.05,0.19,0.0,111.226265
76,1075.0,232.05,0.19,0.0,111.226265
77,1076.0,232.05,0.19,0.0,111.226265
78,1077.0,232.05,0.19,0.0,111.226265
79,1078.0,232.05,0.19,0.0,111.226265
80,1079.0,232.05,0.19,0.0,111.226265
81,1080.0,232.05,0.19,0.0,111.226265
82,1081.0,232.05,0.19,0.0,111.226265
83,1082.0,232.05,0.19,0.0,111.226265
84,1083.0,232.05,0.19,0.0,111.226265
85,1084.0,232.05,0.19,0.0,111.226265
86,1085.0,232.05,0.19,0.0,111.226265
87,1086.0,232.05,0.19,0.0,111.226265
88,1087.0,232.05,0.19,0.0,111.226265
89,1088.0,232.05,0.19,0.0,111.226265
90,1089.0,232.05,0.19,0.0,111.226265
91,1090.0,232.05,0.19,0.0,111.226265
92,1091.0,232.05,0.19,0.0,111.226265
93,1092.0,232.05,0.19,0.0,111.226265
94,1093.0,232.05,0.19,0.0,111.226265
95,1094.0,232.05,0.19,0.0,111.226265
96,1095.0,232.05,0.19,0.0,111.226265
97,1096.0,232.05,0.19,0.0,111.226265
98,1097.0,232.05,0.19,0.0,111.226265
99,1098.0,232.05,0.19,0.0,111.226265
100,1099.0,232.05,0.19,0.0,111.226265
101,1100.0,232.05,0.19,0.0,111.226265
102,1101.0,232.05,0.19,0.0,111.226265
103,1102.0,232.05,0.19,0.0,111.226265
104,1103.0,232.05,0.19,0.0,111.226265
105,1104.0,232.05,0.19,0.0,111.226265
106,1105.0,232.05,0.19,0.0,111.226265
107,1106.0,232.05,0.19,0.0,111.226265
108,1107.0,232.05,0.19,0.0,111.226265
109,1108.0,232.05,0.19,0.0,111.226265
110,1109.0,232.05,0.19,0.0,111.226265
111,1110.0,232.05,0.19,0.0,111.226265
112,1111.0,232.05,0.19,0.0,111.226265
113,1112.0,232.05,0.19,0.0,111.226265
114,1113.0,232.05,0.19,0.0,111.226265
115,1114.0,232.05,0.19,0.0,111.226265
116,1115.0,232.05,0.19,0.0,111.226265
117,1116.0,232.05,0.19,0.0,111.226265
118,1117.0,232.05,0.19,0.0,111.226265
119,1118.0,232.05,0.19,0.0,111.226265
120,1119.0,232.05,0.19,0.0,111.226265
121,1120.0,232.05,0.19,0.0,111.226265
122,1121.0,232.05,0.19,0.0,111.226265
123,1122.0,232.05,0.19,0.0,111.226265
124,1123.0,232.05,0.19,0.0,111.226265
125,1124.0,232.05,0.19,0.0,111.226265
126,1125.0,232.05,0.19,0.0,111.226265
127,1126.0,232.05,0.19,0.0,111.226265
128,1127.0,232.05,0.19,0.0,111.226265
129,1128.0,232.05,0.19,0.0,111.226265
130,1129.0,232.05,0.19,0.0,111.226265
131,1130.0,232.05,0.19,0.0,111.226265
132,1131.0,232.05,0.19,0.0,111.226265
133,1132.0,232.05,0.19,0.0,111.226265
134,1133.0,232.05,0.19,0.0,111.226265
135,1134.0,232.05,0.19,0.0,111.226265
136,1135.0,232.05,0.19,0.0,111.226265
137,1136.0,232.05,0.19,0.0,111.226265
138,1137.0,232.05,0.19,0.0,111.226265
139,1138.0,232.05,0.19,0.0,111.226265
140,1139.0,232.05,0.19,0.0,111.226265
141,1140.0,232.05,0.19,0.0,111.226265
142,1141.0,232.05,0.19,0.0,111.226265
143,1142.0,232.05,0.19,0.0,111.226265
144,1143.0,232.05,0.19,0.0,111.226265
145,1144.0,232.05,0.19,0.0,111.226265
146,1145.0,232.05,0.19,0.0,111.226265
147,1146.0,232.05,0.19,0.0,111.226265
148,1147.0,232.05,0.19,0.0,111.226265
149,1148.0,232.05,0.19,0.0,111.226265
150,1149.0,232.05,0.19,0.0,111.226265
151,1150.0,232.05,0.19,0.0,111.226265
152,1151.0,232.05,0.19,0.0,111.226265
153,1152.0,232.05,0.19,0.0,111.226265
154,1153.0,232.05,0.19,0.0,111.226265
155,1154.0,232.05,0.19,0.0,111.226265
156,1155.0,232.05,0.19,0.0,111.226265
157,1156.0,232.05,0.19,0.0,111.226265
158,1157.0,232.05,0.19,0.0,111.226265
159,1158.0,232.05,0.19,0.0,111.226265
160,1159.0,232.05,0.19,0.0,111.226265
161,1160.0,232.05,0.19,0.0,111.226265
162,1161.0,232.05,0.19,0.0,111.226265
163,1162.0,232.05,0.19,0.0,111.226265
164,1163.0,232.05,0.19,0.0,111.226265
165,1164.0,232.05,0.19,0.0,111.226265
166,1165.0,232.05,0.19,0.0,111.226265
167,1166.0,232.05,0.19,0.0,111.226265
168,1167.0,232.05,0.19,0.0,111.226265
169,1168.0,232.05,0.19,0.0,111.226265
170,1169.0,232.05,0.19,0.0,111.226265
171,1170.0,232.05,0.19,0.0,111.226265
172,1171.0,232.05,0.19,0.0,111.226265
173,1172.0,232.05,0.19,0.0,111.226265
174,1173.0,232.05,0.19,0.0,111.226265
175,1174.0,232.05,0.19,0.0,111.226265
176,1175.0,232.05,0.19,0.0,111.226265
177,1176.0,232.05,0.19,0.0,111.226265
178,1177.0,232.05,0.19,0.0,111.226265
179,1178.0,232.05,0.19,0.0,111.226265
180,1179.0,232.05,0.19,0.0,111.226265
181,1180.0,232.05,0.19,0.0,111.226265
182,1181.0,232.05,0.19,0.0,111.226265
183,1182.0,232.05,0.19,0.0,111.226265
184,1183.0,232.05,0.19,0.0,111.226265
185,1184.0,232.05,0.19,0.0,111.226265
186,1185.0,232.05,0.19,0.0,111.226265
187,1186.0,232.05,0.19,0.0,111.226265
188,1187.0,232.05,0.19,0.0,111.226265
189,1188.0,232.05,0.19,0.0,111.226265
190,1189.0,232.05,0.19,0.0,111.226265
191,1190.0,232.05,0.19,0.0,111.226265
192,1191.0,232.05,0.19,0.0,111.226265
193,1192.0,232.05,0.19,0.0,111.226265
194,1193.0,232.05,0.19,0.0,111.226265
195,1194.0,232.05,0.19,0.0,111.226265
196,1195.0,232.05,0.19,0.0,111.226265
197,1196.0,232.05,0.19,0.0,111.226265
198,1197.0,232.05,0.19,0.0,111.226265
199,1198.0,232.05,0.19,0.0,111.226265
200,1199.0,232.05,0.19,0.0,111.226265
201,1200.0,232.05,0.19,0.0,111.226265
202,1201.0,232.05,0.19,0.0,111.226265
203,1202.0,232.05,0.19,0.0,111.226265
204,1203.0,232.05,0.19,0.0,111.226265
205,1204.0,232.05,0.19,0.0,111.226265
206,1205.0,232.05,0.19,0.0,111.226265
207,1206.0,232.05,0.19,0.0,111.226265
208,1207.0,232.05,0.19,0.0,111.226265
209,1208.0,232.05,0.19,0.0,111.226265
210,1209.0,232.05,0.19,0.0,111.226265
211,1210.0,232.05,0.19,0.0,111.226265
212,1211.0,232.05,0.19,0.0,111.226265
213,1212.0,232.05,0.19,0.0,111.226265
214,1213.0,232.05,0.19,0.0,111.226265
215,1214.0,232.05,0.19,0.0,111.226265
216,1215.0,232.05,0.19,0.0,111.226265
217,1216.0,232.05,0.19,0.0,111.226265
218,1217.0,232.05,0.19,0.0,111.226265
219,1218.0,232.05,0.19,0.0,111.226265
220,1219.0,232.05,0.19,0.0,111.226265
221,1220.0,232.05,0.19,0.0,111.226265
222,1221.0,232.05,0.19,0.0,111.226265
223,1222.0,232.05,0.19,0.0,111.226265
224,1223.0,232.05,0.19,0.0,111.226265
225,1224.0,232.05,0.19,0.0,111.226265
226,1225.0,232.05,0.19,0.0,111.226265
227,1226.0,232.05,0.19,0.0,111.226265
228,1227.0,232.05,0.19,0.0,111.226265
229,1228.0,232.05,0.19,0.0,111.226265
230,1229.0,232.05,0.19,0.0,111.226265
231,1230.0,232.05,0.19,0.0,111.226265
232,1231.0,232.05,0.19,0.0,111.226265
233,1232.0,232.05,0.19,0.0,111.226265
234,1233.0,232.05,0.19,0.0,111.226265
235,1234.0,232.05,0.19,0.0,111.226265
236,1235.0,232.05,0.19,0.0,111.226265
237,1236.0,232.05,0.19,0.0,111.226265
238,1237.0,232.05,0.19,0.0,111.226265
239,1238.0,232.05,0.19,0.0,111.226265
240,1239.0,232.05,0.19,0.0,111.226265
241,1240.0,232.05,0.19,0.0,111.226265
242,1241.0,232.05,0.19,0.0,111.226265
243,1242.0,232.05,0.19,0.0,111.226265
244,1243.0,232.05,0.19,0.0,111.226265
245,1244.0,232.05,0.19,0.0,111.226265
246,1245.0,232.05,0.19,0.0,111.226265
247,1246.0,232.05,0.19,0.0,111.226265
248,1247.0,232.05,0.19,0.0,111.226265
249,1248.0,232.05,0.19,0.0,111.226265
250,1249.0,232.05,0.19,0.0,111.226265
251,1250.0,232.05,0.19,0.0,111.226265
252,1251.0,232.05,0.19,0.0,111.226265
253,1252.0,232.05,0.19,0.0,111.226265
254,1253.0,232.05,0.19,0.0,111.226265
255,1254.0,232.05,0.19,0.0,111.226265
256,1255.0,232.05,0.19,0.0,111.226265
257,1256.0,232.05,0.19,0.0,111.226265
258,1257.0,232.05,0.19,0.0,111.226265
259,1258.0,232.05,0.19,0.0,111.226265
260,1259.0,232.05,0.19,0.0,111.226265
261,1260.0,232.05,0.19,0.0,111.226265
262,1261.0,232.05,0.19,0.0,111.226265
263,1262.0,232.05,0.19,0.0,111.226265
264,1263.0,232.05,0.19,0.0,111.226265
265,1264.0,232.05,0.19,0.0,111.226265
266,1265.0,232.05,0.19,0.0,111.226265
267,1266.0,232.05,0.19,0.0,111.226265
268,1267.0,232.05,0.19,0.0,111.226265
269,1268.0,232.05,0.19,0.0,111.226265
270,1269.0,232.05,0.19,0.0,111.226265
271,1270.0,232.05,0.19,0.0,111.226265
272,1271.0,232.05,0.19,0.0,111.226265
273,1272.0,232.05,0.19,0.0,111.226265
274,1273.0,232.05,0.19,0.0,111.226265
275,1274.0,232.05,0.19,0.0,111.226265
276,1275.0,232.05,0.19,0.0,111.226265
277,1276.0,232.05,0.19,0.0,111.226265
278,1277.0,232.05,0.19,0.0,111.226265
279,1278.0,232.05,0.19,0.0,111.226265
280,1279.0,232.05,0.19,0.0,111.226265
281,1280.0,232.05,0.19,0.0,111.226265
282,1281.0,232.05,0.19,0.0,111.226265
283,1282.0,232.05,0.19,0.0,111.226265
284,1283.0,232.05,0.19,0.0,111.226265
285,1284.0,232.05,0.19,0.0,111.226265
286,1285.0,232.05,0.19,0.0,111.226265
287,1286.0,232.05,0.19,0.0,111.226265
288,1287.0,232.05,0.19,0.0,111.226265
289,1288.0,232.05,0.19,0.0,111.226265
290,1289.0,232.05,0.19,0.0,111.226265
291,1290.0,232.05,0.19,0.0,111.226265
292,1291.0,232.05,0.19,0.0,111.226265
293,1292.0,232.05,0.19,0.0,111.226265
294,1293.0,232.05,0.19,0.0,111.226265
295,1294.0,232.05,0.19,0.0,111.226265
296,1295.0,232.05,0.19,0.0,111.226265
297,1296.0,232.05,0.19,0.0,111.226265
298,1297.0,232.05,0.19,0.0,111.226265
299,1298.0,232.05,0.19,0.0,111.226265
300,1299.0,232.05,0.19,0.0,111.226265
301,1300.0,232.05,0.19,0.0,111.226265
302,1301.0,232.05,0.19,0.0,111.226265
303,1302.0,232.05,0.19,0.0,111.226265
304,1303.0,232.05,0.19,0.0,111.226265
305,1304.0,232.05,0.19,0.0,111.226265
306,1305.0,232.05,0.19,0.0,111.226265
307,1306.0,232.05,0.19,0.0,111.226265
308,1307.0,232.05,0.19,0.0,111.226265
309,1308.0,232.05,0.19,0.0,111.226265
310,1309.0,232.05,0.19,0.0,111.226265
311,1310.0,232.05,0.19,0.0,111.226265
312,1311.0,232.05,0.19,0.0,111.226265
313,1312.0,232.05,0.19,0.0,111.226265
314,1313.0,232.05,0.19,0.0,111.226265
315,1314.0,232.05,0.19,0.0,111.226265
316,1315.0,232.05,0.19,0.0,111.226265
317,1316.0,232.05,0.19,0.0,111.226265
318,1317.0,232.05,0.19,0.0,111.226265
319,1318.0,232.05,0.19,0.0,111.226265
320,1319.0,232.05,0.19,0.0,111.226265
321,1320.0,232.05,0.19,0.0,111.226265
322,1321.0,232.05,0.19,0.0,111.226265
323,1322.0,232.05,0.19,0.0,111.226265
324,1323.0,232.05,0.19,0.0,111.226265
325,1324.0,232.05,0.19,0.0,111.226265
326,1325.0,232.05,0.19,0.0,111.226265
327,1326.0,232.05,0.19,0.0,111.226265
328,1327.0,232.05,0.19,0.0,111.226265
329,1328.0,232.05,0.19,0.0,111.226265
330,1329.0,232.05,0.19,0.0,111.226265
331,1330.0,232.05,0.19,0.0,111.226265
332,1331.0,232.05,0.19,0.0,111.226265
333,1332.0,232.05,0.19,0.0,111.226265
334,1333.0,232.05,0.19,0.0,111.226265
335,1334.0,232.05,0.19,0.0,111.226265
336,1335.0,232.05,0.19,0.0,111.226265
337,1336.0,232.05,0.19,0.0,111.226265
338,1337.0,232.05,0.19,0.0,111.226265
339,1338.0,232.05,0.19,0.0,111.226265
340,1339.0,232.05,0.19,0.0,111.226265
341,1340.0,232.05,0.19,0.0,111.226265
342,1341.0,232.05,0.19,0.0,111.226265
343,1342.0,232.05,0.19,0.0,111.226265
344,1343.0,232.05,0.19,0.0,111.226265
345,1344.0,232.05,0.19,0.0,111.226265
346,1345.0,232.05,0.19,0.0,111.226265
347,1346.0,232.05,0.19,0.0,111.226265
348,1347.0,232.05,0.19,0.0,111.226265
349,1348.0,232.05,0.19,0.0,111.226265
350,1349.0,232.05,0.19,0.0,111.226265
351,1350.0,232.05,0.19,0.0,111.226265
352,1351.0,232.05,0.19,0.0,111.226265
353,1352.0,232.05,0.19,0.0,111.226265
354,1353.0,232.05,0.19,0.0,111.226265
355,1354.0,232.05,0.19,0.0,111.226265
356,1355.0,232.05,0.19,0.0,111.226265
357,1356.0,232.05,0.19,0.0,111.226265
358,1357.0,232.05,0.19,0.0,111.226265
359,1358.0,232.05,0.19,0.0,111.226265
360,1359.0,232.05,0.19,0.0,111.226265
361,1360.0,232.05,0.19,0.0,111.226265
362,1361.0,232.05,0.19,0.0,111.226265
363,1362.0,232.05,0.19,0.0,111.226265
364,1363.0,232.05,0.19,0.0,111.226265
365,1364.0,232.05,0.19,0.0,111.226265
366,1365.0,232.05,0.19,0.0,111.226265
367,1366.0,232.05,0.19,0.0,111.226265
368,1367.0,232.05,0.19,0.0,111.226265
369,1368.0,232.05,0.19,0.0,111.226265
370,1369.0,232.05,0.19,0.0,111.226265
371,1370.0,232.05,0.19,0.0,111.226265
372,1371.0,232.05,0.19,0.0,111.226265
373,1372.0,232.05,0.19,0.0,111.226265
374,1373.0,232.05,0.19,0.0,111.226265
375,1374.0,232.05,0.19,0.0,111.226265
376,1375.0,232.05,0.19,0.0,111.226265
377,1376.0,232.05,0.19,0.0,111.226265
378,1377.0,232.05,0.19,0.0,111.226265
379,1378.0,232.05,0.19,0.0,111.226265
380,1379.0,232.05,0.19,0.0,111.226265
381,1380.0,232.05,0.19,0.0,111.226265
382,1381.0,232.05,0.19,0.0,111.226265
383,1382.0,232.05,0.19,0.0,111.226265
384,1383.0,232.05,0.19,0.0,111.226265
385,1384.0,232.05,0.19,0.0,111.226265
386,1385.0,232.05,0.19,0.0,111.226265
387,1386.0,232.05,0.19,0.0,111.226265
388,1387.0,232.05,0.19,0.0,111.226265
389,1388.0,232.05,0.19,0.0,111.226265
390,1389.0,232.05,0.19,0.0,111.226265
391,1390.0,232.05,0.19,0.0,111.226265
392,1391.0,232.05,0.19,0.0,111.226265
393,1392.0,232.05,0.19,0.0,111.226265
394,1393.0,232.05,0.19,0.0,111.226265
395,1394.0,232.05,0.19,0.0,111.226265
396,1395.0,232.05,0.19,0.0,111.226265
397,1396.0,232.05,0.19,0.0,111.226265
398,1397.0,232.05,0.19,0.0,111.226265
399,1398.0,232.05,0.19,0.0,111.226265
400,1399.0,232.05,0.19,0.0,111.226265
401,1400.0,232.05,0.19,0.0,111.226265
402,1401.0,232.05,0.19,0.0,111.226265
403,1402.0,232.05,0.19,0.0,111.226265
404,1403.0,232.05,0.19,0.0,111.226265
405,1404.0,232.05,0.19,0.0,111.226265
406,1405.0,232.05,0.19,0.0,111.226265
407,1406.0,232.05,0.19,0.0,111.226265
408,1407.0,232.05,0.19,0.0,111.226265
409,1408.0,232.05,0.19,0.0,111.226265
410,1409.0,232.05,0.19,0.0,111.226265
411,1410.0,232.05,0.19,0.0,111.226265
412,1411.0,232.05,0.19,0.0,111.226265
413,1412.0,232.05,0.19,0.0,111.226265
414,1413.0,232.05,0.19,0.0,111.226265
415,1414.0,232.05,0.19,0.0,111.226265
416,1415.0,232.05,0.19,0.0,111.226265
417,1416.0,232.05,0.19,0.0,111.226265
418,1417.0,232.05,0.19,0.0,111.226265
419,1418.0,232.05,0.19,0.0,111.226265
420,1419.0,232.05,0.19,0.0,111.226265
421,1420.0,232.05,0.19,0.0,111.226265
422,1421.0,232.05,0.19,0.0,111.226265
423,1422.0,232.05,0.19,0.0,111.226265
424,1423.0,232.05,0.19,0.0,111.226265
425,1424.0,232.05,0.19,0.0,111.226265
426,1425.0,232.05,0.19,0.0,111.226265
427,1426.0,232.05,0.19,0.0,111.226265
428,1427.0,232.05,0.19,0.0,111.226265
429,1428.0,232.05,0.19,0.0,111.226265
430,1429.0,232.05,0.19,0.0,111.226265
431,1430.0,232.05,0.19,0.0,111.226265
432,1431.0,232.05,0.19,0.0,111.226265
433,1432.0,232.05,0.19,0.0,111.226265
434,1433.0,232.05,0.19,0.0,111.226265
435,1434.0,232.05,0.19,0.0,111.226265
436,1435.0,232.05,0.19,0.0,111.226265
437,1436.0,232.05,0.19,0.0,111.226265
438,1437.0,232.05,0.19,0.0,111.226265
439,1438.0,232.05,0.19,0.0,111.226265
440,1439.0,232.05,0.19,0.0,111.226265
441,1440.0,232.05,0.19,0.0,111.226265
442,1441.0,232.05,0.19,0.0,111.226265
443,1442.0,232.05,0.19,0.0,111.226265
444,1443.0,232.05,0.19,0.0,111.226265
445,1444.0,232.05,0.19,0.0,111.226265
446,1445.0,232.05,0.19,0.0,111.226265
447,1446.0,232.05,0.19,0.0,111.226265
448,1447.0,232.05,0.19,0.0,111.226265
449,1448.0,232.05,0.19,0.0,111.226265
450,1449.0,232.05,0.19,0.0,111.226265
451,1450.0,232.05,0.19,0.0,111.226265
452,1451.0,232.05,0.19,0.0,111.226265
453,1452.0,232.05,0.19,0.0,111.226265
454,1453.0,232.05,0.19,0.0,111.226265
455,1454.0,232.05,0.19,0.0,111.226265
456,1455.0,232.05,0.19,0.0,111.226265
457,1456.0,232.05,0.19,0.0,111.226265
458,1457.0,232.05,0.19,0.0,111.226265
459,1458.0,232.05,0.19,0.0,111.226265
460,1459.0,232.05,0.19,0.0,111.226265
461,1460.0,232.05,0.19,0.0,111.226265
462,1461.0,232.05,0.19,0.0,111.226265
463,1462.0,232.05,0.19,0.0,111.226265
464,1463.0,232.05,0.19,0.0,111.226265
465,1464.0,232.05,0.19,0.0,111.226265
466,1465.0,232.05,0.19,0.0,111.226265
467,1466.0,232.05,0.19,0.0,111.226265
468,1467.0,232.05,0.19,0.0,111.226265
469,1468.0,232.05,0.19,0.0,111.226265
470,1469.0,232.05,0.19,0.0,111.226265
471,1470.0,232.05,0.19,0.0,111.226265
472,1471.0,232.05,0.19,0.0,111.226265
473,1472.0,232.05,0.19,0.0,111.226265
474,1473.0,232.05,0.19,0.0,111.226265
475,1474.0,232.05,0.19,0.0,111.226265
476,1475.0,232.05,0.19,0.0,111.226265
477,1476.0,232.05,0.19,0.0,111.226265
478,1477.0,232.05,0.19,0.0,111.226265
479,1478.0,232.05,0.19,0.0,111.226265
480,1479.0,232.05,0.19,0.0,111.226265
481,1480.0,232.05,0.19,0.0,111.226265
482,1481.0,232.05,0.19,0.0,111.226265
483,1482.0,232.05,0.19,0.0,111.226265
484,1483.0,232.05,0.19,0.0,111.226265
485,1484.0,232.05,0.19,0.0,111.226265
486,1485.0,232.05,0.19,0.0,111.226265
487,1486.0,232.05,0.19,0.0,111.226265
488,1487.0,232.05,0.19,0.0,111.226265
489,1488.0,232.05,0.19,0.0,111.226265
490,1489.0,232.05,0.19,0.0,111.226265
491,1490.0,232.05,0.19,0.0,111.226265
492,1491.0,232.05,0.19,0.0,111.226265
493,1492.0,232.05,0.19,0.0,111.226265
494,1493.0,232.05,0.19,0.0,111.226265
495,1494.0,232.05,0.19,0.0,111.226265
496,1495.0,232.05,0.19,0.0,111.226265
497,1496.0,232.05,0.19,0.0,111.226265
498,1497.0,232.05,0.19,0.0,111.226265
499,1498.0,232.05,0.19,0.0,111.226265
500,1499.0,232.05,0.19,0.0,111.226265
501,1500.0,232.05,0.19,0.0,111.226265
502,1501.0,232.08667,0.19,0.03666687,111.226265
503,1502.0,232.12334,0.19,0.07333374,111.22622
504,1503.0,232.16,0.19,0.11000061,111.22611
505,1504.0,232.19667,0.19,0.14666748,111.22593
506,1505.0,232.23334,0.19,0.18333435,111.22567
507,1506.0,232.27,0.19,0.22000122,111.22533
508,1507.0,232.30667,0.19,0.2566681,111.22489
509,1508.0,232.34334,0.19,0.29333496,111.22437
510,1509.0,232.38,0.19,0.33000183,111.223755
511,1510.0,232.41667,0.19,0.36665344,111.223045
512,1511.0,232.45334,0.19,0.4033203,111.22224
513,1512.0,232.49,0.19,0.43997192,111.22134
514,1513.0,232.52667,0.19,0.47662354,111.22034
515,1514.0,232.56334,0.19,0.5132599,111.21923
516,1515.0,232.6,0.19,0.549881,111.21803
517,1516.0,232.63667,0.19,0.5865021,111.216736
518,1517.0,232.67334,0.19,0.62309265,111.21533
519,1518.0,232.71,0.19,0.65966797,111.21383
520,1519.0,232.74667,0.19,0.696228,111.21222
521,1520.0,232.78334,0.19,0.73275757,111.21051
522,1521.0,232.82,0.19,0.7692566,111.2087
