,Model_time,temp,Acc,delta_temp,CoD
0,1000.0,232.05,0.06906239,0.0,70.25051
1,1000.0,232.05,0.06906239,0.0,70.250725
2,1001.0,232.05,0.06906239,0.0,70.25093
3,1002.0,232.05,0.06906239,0.0,70.25113
4,1003.0,232.05,0.06906239,0.0,70.25133
5,1004.0,232.05,0.06906239,0.0,70.25152
6,1005.0,232.05,0.06906239,0.0,70.25082
7,1006.0,232.05,0.06906239,0.0,70.25106
8,1007.0,232.05,0.06906239,0.0,70.251305
9,1008.0,232.05,0.06906239,0.0,70.25065
10,1009.0,232.05,0.06906239,0.0,70.25093
11,1010.0,232.05,0.06906239,0.0,70.25121
12,1011.0,232.05,0.06906239,0.0,70.250595
13,1012.0,232.05,0.06906239,0.0,70.25091
14,1013.0,232.05,0.06906239,0.0,70.25121
15,1014.0,232.05,0.06906239,0.0,70.25062
16,1015.0,232.05,0.06906239,0.0,70.25096
17,1016.0,232.05,0.06906239,0.0,70.25128
18,1017.0,232.05,0.06906239,0.0,70.25072
19,1018.0,232.05,0.06906239,0.0,70.25107
20,1019.0,232.05,0.06906239,0.0,70.250534
21,1020.0,232.05,0.06906239,0.0,70.250916
22,1021.0,232.05,0.06906239,0.0,70.25128
23,1022.0,232.05,0.06906239,0.0,70.250755
24,1023.0,232.05,0.06906239,0.0,70.251144
25,1024.0,232.05,0.06906239,0.0,70.25064
26,1025.0,232.05,0.06906239,0.0,70.25105
27,1026.0,232.05,0.06906239,0.0,70.250565
28,1027.0,232.05,0.06906239,0.0,70.251
29,1028.0,232.05,0.06906239,0.0,70.250534
30,1029.0,232.05,0.06906239,0.0,70.250984
31,1030.0,232.05,0.06906239,0.0,70.250534
32,1031.0,232.05,0.06906239,0.0,70.25099
33,1032.0,232.05,0.06906239,0.0,70.25056
34,1033.0,232.05,0.06906239,0.0,70.25103
35,1034.0,232.05,0.06906239,0.0,70.250595
36,1035.0,232.05,0.06906239,0.0,70.25108
37,1036.0,232.05,0.06906239,0.0,70.250656
38,1037.0,232.05,0.06906239,0.0,70.25115
39,1038.0,232.05,0.06906239,0.0,70.25073
40,1039.0,232.05,0.06906239,0.0,70.251236
41,1040.0,232.05,0.06906239,0.0,70.250824
42,1041.0,232.05,0.06906239,0.0,70.25046
43,1042.0,232.05,0.06906239,0.0,70.25101
44,1043.0,232.05,0.06906239,0.0,70.25064
45,1044.0,232.05,0.06906239,0.0,70.25118
46,1045.0,232.05,0.06906239,0.0,70.25082
47,1046.0,232.05,0.06906239,0.0,70.250496
48,1047.0,232.05,0.06906239,0.0,70.251076
49,1048.0,232.05,0.06906239,0.0,70.25075
50,1049.0,232.05,0.06906239,0.0,70.25046
51,1050.0,232.05,0.06906239,0.0,70.25107
52,1051.0,232.05,0.06906239,0.0,70.25076
53,1052.0,232.05,0.06906239,0.0,70.250496
54,1053.0,232.05,0.06906239,0.0,70.25113
55,1054.0,232.05,0.06906239,0.0,70.25085
56,1055.0,232.05,0.06906239,0.0,70.2506
57,1056.0,232.05,0.06906239,0.0,70.25039
58,1057.0,232.05,0.06906239,0.0,70.25107
59,1058.0,232.05,0.06906239,0.0,70.25083
60,1059.0,232.05,0.06906239,0.0,70.250626
61,1060.0,232.05,0.06906239,0.0,70.25045
62,1061.0,232.05,0.06906239,0.0,70.250305
63,1062.0,232.05,0.06906239,0.0,70.251045
64,1063.0,232.05,0.06906239,0.0,70.25086
65,1064.0,232.05,0.06906239,0.0,70.2507
66,1065.0,232.05,0.06906239,0.0,70.25057
67,1066.0,232.05,0.06906239,0.0,70.250465
68,1067.0,232.05,0.06906239,0.0,70.25038
69,1068.0,232.05,0.06906239,0.0,70.25032
70,1069.0,232.05,0.06906239,0.0,70.250275
71,1070.0,232.05,0.06906239,0.0,70.251114
72,1071.0,232.05,0.06906239,0.0,70.251015
73,1072.0,232.05,0.06906239,0.0,70.25093
74,1073.0,232.05,0.06906239,0.0,70.25088
75,1074.0,232.05,0.06906239,0.0,70.25083
76,1075.0,232.05,0.06906239,0.0,70.25081
77,1076.0,232.05,0.06906239,0.0,70.25079
78,1077.0,232.05,0.06906239,0.0,70.2508
79,1078.0,232.05,0.06906239,0.0,70.25082
80,1079.0,232.05,0.06906239,0.0,70.25085
81,1080.0,232.05,0.06906239,0.0,70.25088
82,1081.0,232.05,0.06906239,0.0,70.25093
83,1082.0,232.05,0.06906239,0.0,70.250984
84,1083.0,232.05,0.06906239,0.0,70.251045
85,1084.0,232.05,0.06906239,0.0,70.25112
86,1085.0,232.05,0.06906239,0.0,70.2512
87,1086.0,232.05,0.06906239,0.0,70.25128
88,1087.0,232.05,0.06906239,0.0,70.251366
89,1088.0,232.05,0.06906239,0.0,70.251465
90,1089.0,232.05,0.06906239,0.0,70.25156
91,1090.0,232.05,0.06906239,0.0,70.25078
92,1091.0,232.05,0.06906239,0.0,70.250946
93,1092.0,232.05,0.06906239,0.0,70.251114
94,1093.0,232.05,0.06906239,0.0,70.25128
95,1094.0,232.05,0.06906239,0.0,70.25144
96,1095.0,232.05,0.06906239,0.0,70.250725
97,1096.0,232.05,0.06906239,0.0,70.250946
98,1097.0,232.05,0.06906239,0.0,70.25117
99,1098.0,232.05,0.06906239,0.0,70.250496
100,1099.0,232.05,0.06906239,0.0,70.25077
101,1100.0,232.05,0.06906239,0.0,70.25103
102,1101.0,232.05,0.06906239,0.0,70.25128
103,1102.0,232.05,0.06906239,0.0,70.25064
104,1103.0,232.05,0.06906239,0.0,70.25094
105,1104.0,232.05,0.06906239,0.0,70.25122
106,1105.0,232.05,0.06906239,0.0,70.25062
107,1106.0,232.05,0.06906239,0.0,70.25094
108,1107.0,232.05,0.06906239,0.0,70.25125
109,1108.0,232.05,0.06906239,0.0,70.25066
110,1109.0,232.05,0.06906239,0.0,70.251015
111,1110.0,232.05,0.06906239,0.0,70.250465
112,1111.0,232.05,0.06906239,0.0,70.25084
113,1112.0,232.05,0.06906239,0.0,70.2512
114,1113.0,232.05,0.06906239,0.0,70.250656
115,1114.0,232.05,0.06906239,0.0,70.251045
116,1115.0,232.05,0.06906239,0.0,70.250534
117,1116.0,232.05,0.06906239,0.0,70.25094
118,1117.0,232.05,0.06906239,0.0,70.25045
119,1118.0,232.05,0.06906239,0.0,70.25088
120,1119.0,232.05,0.06906239,0.0,70.25129
121,1120.0,232.05,0.06906239,0.0,70.25079
122,1121.0,232.05,0.06906239,0.0,70.25122
123,1122.0,232.05,0.06906239,0.0,70.25074
124,1123.0,232.05,0.06906239,0.0,70.25118
125,1124.0,232.05,0.06906239,0.0,70.250725
126,1125.0,232.05,0.06906239,0.0,70.25118
127,1126.0,232.05,0.06906239,0.0,70.25073
128,1127.0,232.05,0.06906239,0.0,70.251205
129,1128.0,232.05,0.06906239,0.0,70.25077
130,1129.0,232.05,0.06906239,0.0,70.25124
131,1130.0,232.05,0.06906239,0.0,70.25082
132,1131.0,232.05,0.06906239,0.0,70.25044
133,1132.0,232.05,0.06906239,0.0,70.25098
134,1133.0,232.05,0.06906239,0.0,70.250595
135,1134.0,232.05,0.06906239,0.0,70.25113
136,1135.0,232.05,0.06906239,0.0,70.250755
137,1136.0,232.05,0.06906239,0.0,70.25042
138,1137.0,232.05,0.06906239,0.0,70.25099
139,1138.0,232.05,0.06906239,0.0,70.250656
140,1139.0,232.05,0.06906239,0.0,70.25036
141,1140.0,232.05,0.06906239,0.0,70.25096
142,1141.0,232.05,0.06906239,0.0,70.250656
143,1142.0,232.05,0.06906239,0.0,70.25038
144,1143.0,232.05,0.06906239,0.0,70.251015
145,1144.0,232.05,0.06906239,0.0,70.250725
146,1145.0,232.05,0.06906239,0.0,70.25047
147,1146.0,232.05,0.06906239,0.0,70.25112
148,1147.0,232.05,0.06906239,0.0,70.25085
149,1148.0,232.05,0.06906239,0.0,70.25061
150,1149.0,232.05,0.06906239,0.0,70.25041
151,1150.0,232.05,0.06906239,0.0,70.2511
152,1151.0,232.05,0.06906239,0.0,70.25087
153,1152.0,232.05,0.06906239,0.0,70.25067
154,1153.0,232.05,0.06906239,0.0,70.2505
155,1154.0,232.05,0.06906239,0.0,70.25036
156,1155.0,232.05,0.06906239,0.0,70.25111
157,1156.0,232.05,0.06906239,0.0,70.25093
158,1157.0,232.05,0.06906239,0.0,70.25078
159,1158.0,232.05,0.06906239,0.0,70.25065
160,1159.0,232.05,0.06906239,0.0,70.25055
161,1160.0,232.05,0.06906239,0.0,70.250465
162,1161.0,232.05,0.06906239,0.0,70.25041
163,1162.0,232.05,0.06906239,0.0,70.25037
164,1163.0,232.05,0.06906239,0.0,70.25034
165,1164.0,232.05,0.06906239,0.0,70.250336
166,1165.0,232.05,0.06906239,0.0,70.25034
167,1166.0,232.05,0.06906239,0.0,70.25036
168,1167.0,232.05,0.06906239,0.0,70.25039
169,1168.0,232.05,0.06906239,0.0,70.25043
170,1169.0,232.05,0.06906239,0.0,70.25048
171,1170.0,232.05,0.06906239,0.0,70.250534
172,1171.0,232.05,0.06906239,0.0,70.2506
173,1172.0,232.05,0.06906239,0.0,70.25067
174,1173.0,232.05,0.06906239,0.0,70.250755
175,1174.0,232.05,0.06906239,0.0,70.25084
176,1175.0,232.05,0.06906239,0.0,70.25093
177,1176.0,232.05,0.06906239,0.0,70.25102
178,1177.0,232.05,0.06906239,0.0,70.25112
179,1178.0,232.05,0.06906239,0.0,70.25122
180,1179.0,232.05,0.06906239,0.0,70.25133
181,1180.0,232.05,0.06906239,0.0,70.251434
182,1181.0,232.05,0.06906239,0.0,70.25155
183,1182.0,232.05,0.06906239,0.0,70.25166
184,1183.0,232.05,0.06906239,0.0,70.25089
185,1184.0,232.05,0.06906239,0.0,70.251076
186,1185.0,232.05,0.06906239,0.0,70.25126
187,1186.0,232.05,0.06906239,0.0,70.251434
188,1187.0,232.05,0.06906239,0.0,70.250725
189,1188.0,232.05,0.06906239,0.0,70.25096
190,1189.0,232.05,0.06906239,0.0,70.25119
191,1190.0,232.05,0.06906239,0.0,70.25141
192,1191.0,232.05,0.06906239,0.0,70.25075
193,1192.0,232.05,0.06906239,0.0,70.251015
194,1193.0,232.05,0.06906239,0.0,70.25128
195,1194.0,232.05,0.06906239,0.0,70.25065
196,1195.0,232.05,0.06906239,0.0,70.25096
197,1196.0,232.05,0.06906239,0.0,70.25125
198,1197.0,232.05,0.06906239,0.0,70.25065
199,1198.0,232.05,0.06906239,0.0,70.250984
200,1199.0,232.05,0.06906239,0.0,70.25042
201,1200.0,232.05,0.06906239,0.0,70.250786
202,1201.0,232.05,0.06906239,0.0,70.25114
203,1202.0,232.05,0.06906239,0.0,70.25059
204,1203.0,232.05,0.06906239,0.0,70.25096
205,1204.0,232.05,0.06906239,0.0,70.25044
206,1205.0,232.05,0.06906239,0.0,70.25085
207,1206.0,232.05,0.06906239,0.0,70.25123
208,1207.0,232.05,0.06906239,0.0,70.25071
209,1208.0,232.05,0.06906239,0.0,70.251114
210,1209.0,232.05,0.06906239,0.0,70.25062
211,1210.0,232.05,0.06906239,0.0,70.251045
212,1211.0,232.05,0.06906239,0.0,70.250565
213,1212.0,232.05,0.06906239,0.0,70.25101
214,1213.0,232.05,0.06906239,0.0,70.25055
215,1214.0,232.05,0.06906239,0.0,70.25101
216,1215.0,232.05,0.06906239,0.0,70.25056
217,1216.0,232.05,0.06906239,0.0,70.25103
218,1217.0,232.05,0.06906239,0.0,70.250595
219,1218.0,232.05,0.06906239,0.0,70.251076
220,1219.0,232.05,0.06906239,0.0,70.25065
221,1220.0,232.05,0.06906239,0.0,70.25114
222,1221.0,232.05,0.06906239,0.0,70.25072
223,1222.0,232.05,0.06906239,0.0,70.25121
224,1223.0,232.05,0.06906239,0.0,70.2508
225,1224.0,232.05,0.06906239,0.0,70.251305
226,1225.0,232.05,0.06906239,0.0,70.25089
227,1226.0,232.05,0.06906239,0.0,70.250534
228,1227.0,232.05,0.06906239,0.0,70.25108
229,1228.0,232.05,0.06906239,0.0,70.25072
230,1229.0,232.05,0.06906239,0.0,70.250404
231,1230.0,232.05,0.06906239,0.0,70.250984
232,1231.0,232.05,0.06906239,0.0,70.250656
233,1232.0,232.05,0.06906239,0.0,70.250374
234,1233.0,232.05,0.06906239,0.0,70.25099
235,1234.0,232.05,0.06906239,0.0,70.25069
236,1235.0,232.05,0.06906239,0.0,70.25043
237,1236.0,232.05,0.06906239,0.0,70.25106
238,1237.0,232.05,0.06906239,0.0,70.25078
239,1238.0,232.05,0.06906239,0.0,70.250534
240,1239.0,232.05,0.06906239,0.0,70.25119
241,1240.0,232.05,0.06906239,0.0,70.25092
242,1241.0,232.05,0.06906239,0.0,70.25069
243,1242.0,232.05,0.06906239,0.0,70.25049
244,1243.0,232.05,0.06906239,0.0,70.25032
245,1244.0,232.05,0.06906239,0.0,70.251045
246,1245.0,232.05,0.06906239,0.0,70.25084
247,1246.0,232.05,0.06906239,0.0,70.25067
248,1247.0,232.05,0.06906239,0.0,70.25053
249,1248.0,232.05,0.06906239,0.0,70.250404
250,1249.0,232.05,0.06906239,0.0,70.25031
251,1250.0,232.05,0.06906239,0.0,70.2511
252,1251.0,232.05,0.06906239,0.0,70.25095
253,1252.0,232.05,0.06906239,0.0,70.25084
254,1253.0,232.05,0.06906239,0.0,70.25075
255,1254.0,232.05,0.06906239,0.0,70.25067
256,1255.0,232.05,0.06906239,0.0,70.25062
257,1256.0,232.05,0.06906239,0.0,70.25058
258,1257.0,232.05,0.06906239,0.0,70.25056
259,1258.0,232.05,0.06906239,0.0,70.25056
260,1259.0,232.05,0.06906239,0.0,70.250565
261,1260.0,232.05,0.06906239,0.0,70.25059
262,1261.0,232.05,0.06906239,0.0,70.25062
263,1262.0,232.05,0.06906239,0.0,70.250656
264,1263.0,232.05,0.06906239,0.0,70.25071
265,1264.0,232.05,0.06906239,0.0,70.25077
266,1265.0,232.05,0.06906239,0.0,70.25084
267,1266.0,232.05,0.06906239,0.0,70.25091
268,1267.0,232.05,0.06906239,0.0,70.25099
269,1268.0,232.05,0.06906239,0.0,70.251076
270,1269.0,232.05,0.06906239,0.0,70.25117
271,1270.0,232.05,0.06906239,0.0,70.25127
272,1271.0,232.05,0.06906239,0.0,70.251366
273,1272.0,232.05,0.06906239,0.0,70.251465
274,1273.0,232.05,0.06906239,0.0,70.25157
275,1274.0,232.05,0.06906239,0.0,70.25079
276,1275.0,232.05,0.06906239,0.0,70.25097
277,1276.0,232.05,0.06906239,0.0,70.251144
278,1277.0,232.05,0.06906239,0.0,70.25132
279,1278.0,232.05,0.06906239,0.0,70.25149
280,1279.0,232.05,0.06906239,0.0,70.25077
281,1280.0,232.05,0.06906239,0.0,70.251
282,1281.0,232.05,0.06906239,0.0,70.25123
283,1282.0,232.05,0.06906239,0.0,70.25056
284,1283.0,232.05,0.06906239,0.0,70.25083
285,1284.0,232.05,0.06906239,0.0,70.2511
286,1285.0,232.05,0.06906239,0.0,70.25135
287,1286.0,232.05,0.06906239,0.0,70.25072
288,1287.0,232.05,0.06906239,0.0,70.251015
289,1288.0,232.05,0.06906239,0.0,70.251305
290,1289.0,232.05,0.06906239,0.0,70.250694
291,1290.0,232.05,0.06906239,0.0,70.25102
292,1291.0,232.05,0.06906239,0.0,70.25045
293,1292.0,232.05,0.06906239,0.0,70.25081
294,1293.0,232.05,0.06906239,0.0,70.25116
295,1294.0,232.05,0.06906239,0.0,70.2506
296,1295.0,232.05,0.06906239,0.0,70.25098
297,1296.0,232.05,0.06906239,0.0,70.25045
298,1297.0,232.05,0.06906239,0.0,70.250854
299,1298.0,232.05,0.06906239,0.0,70.25123
300,1299.0,232.05,0.06906239,0.0,70.25071
301,1300.0,232.05,0.06906239,0.0,70.251114
302,1301.0,232.05,0.06906239,0.0,70.25062
303,1302.0,232.05,0.06906239,0.0,70.25104
304,1303.0,232.05,0.06906239,0.0,70.25056
305,1304.0,232.05,0.06906239,0.0,70.251
306,1305.0,232.05,0.06906239,0.0,70.25054
307,1306.0,232.05,0.06906239,0.0,70.251
308,1307.0,232.05,0.06906239,0.0,70.25055
309,1308.0,232.05,0.06906239,0.0,70.25102
310,1309.0,232.05,0.06906239,0.0,70.25058
311,1310.0,232.05,0.06906239,0.0,70.25106
312,1311.0,232.05,0.06906239,0.0,70.25063
313,1312.0,232.05,0.06906239,0.0,70.25112
314,1313.0,232.05,0.06906239,0.0,70.2507
315,1314.0,232.05,0.06906239,0.0,70.2512
316,1315.0,232.05,0.06906239,0.0,70.250786
317,1316.0,232.05,0.06906239,0.0,70.25128
318,1317.0,232.05,0.06906239,0.0,70.25088
319,1318.0,232.05,0.06906239,0.0,70.25051
320,1319.0,232.05,0.06906239,0.0,70.25106
321,1320.0,232.05,0.06906239,0.0,70.2507
322,1321.0,232.05,0.06906239,0.0,70.25124
323,1322.0,232.05,0.06906239,0.0,70.25088
324,1323.0,232.05,0.06906239,0.0,70.25056
325,1324.0,232.05,0.06906239,0.0,70.251144
326,1325.0,232.05,0.06906239,0.0,70.25081
327,1326.0,232.05,0.06906239,0.0,70.25052
328,1327.0,232.05,0.06906239,0.0,70.25113
329,1328.0,232.05,0.06906239,0.0,70.25083
330,1329.0,232.05,0.06906239,0.0,70.250565
331,1330.0,232.05,0.06906239,0.0,70.250336
332,1331.0,232.05,0.06906239,0.0,70.251
333,1332.0,232.05,0.06906239,0.0,70.25075
334,1333.0,232.05,0.06906239,0.0,70.250534
335,1334.0,232.05,0.06906239,0.0,70.25034
336,1335.0,232.05,0.06906239,0.0,70.25105
337,1336.0,232.05,0.06906239,0.0,70.25083
338,1337.0,232.05,0.06906239,0.0,70.25065
339,1338.0,232.05,0.06906239,0.0,70.25049
340,1339.0,232.05,0.06906239,0.0,70.25036
341,1340.0,232.05,0.06906239,0.0,70.251114
342,1341.0,232.05,0.06906239,0.0,70.25094
343,1342.0,232.05,0.06906239,0.0,70.25079
344,1343.0,232.05,0.06906239,0.0,70.25068
345,1344.0,232.05,0.06906239,0.0,70.25058
346,1345.0,232.05,0.06906239,0.0,70.2505
347,1346.0,232.05,0.06906239,0.0,70.25045
348,1347.0,232.05,0.06906239,0.0,70.25042
349,1348.0,232.05,0.06906239,0.0,70.2504
350,1349.0,232.05,0.06906239,0.0,70.25039
351,1350.0,232.05,0.06906239,0.0,70.2504
352,1351.0,232.05,0.06906239,0.0,70.25042
353,1352.0,232.05,0.06906239,0.0,70.25045
354,1353.0,232.05,0.06906239,0.0,70.250496
355,1354.0,232.05,0.06906239,0.0,70.25055
356,1355.0,232.05,0.06906239,0.0,70.25061
357,1356.0,232.05,0.06906239,0.0,70.25067
358,1357.0,232.05,0.06906239,0.0,70.25075
359,1358.0,232.05,0.06906239,0.0,70.25083
360,1359.0,232.05,0.06906239,0.0,70.250916
361,1360.0,232.05,0.06906239,0.0,70.25101
362,1361.0,232.05,0.06906239,0.0,70.25111
363,1362.0,232.05,0.06906239,0.0,70.251205
364,1363.0,232.05,0.06906239,0.0,70.251305
365,1364.0,232.05,0.06906239,0.0,70.25141
366,1365.0,232.05,0.06906239,0.0,70.25152
367,1366.0,232.05,0.06906239,0.0,70.25163
368,1367.0,232.05,0.06906239,0.0,70.25086
369,1368.0,232.05,0.06906239,0.0,70.251045
370,1369.0,232.05,0.06906239,0.0,70.25122
371,1370.0,232.05,0.06906239,0.0,70.251396
372,1371.0,232.05,0.06906239,0.0,70.25069
373,1372.0,232.05,0.06906239,0.0,70.25092
374,1373.0,232.05,0.06906239,0.0,70.25115
375,1374.0,232.05,0.06906239,0.0,70.25137
376,1375.0,232.05,0.06906239,0.0,70.25071
377,1376.0,232.05,0.06906239,0.0,70.25098
378,1377.0,232.05,0.06906239,0.0,70.25124
379,1378.0,232.05,0.06906239,0.0,70.25061
380,1379.0,232.05,0.06906239,0.0,70.250916
381,1380.0,232.05,0.06906239,0.0,70.25121
382,1381.0,232.05,0.06906239,0.0,70.25061
383,1382.0,232.05,0.06906239,0.0,70.25094
384,1383.0,232.05,0.06906239,0.0,70.25126
385,1384.0,232.05,0.06906239,0.0,70.25068
386,1385.0,232.05,0.06906239,0.0,70.25103
387,1386.0,232.05,0.06906239,0.0,70.25049
388,1387.0,232.05,0.06906239,0.0,70.25087
389,1388.0,232.05,0.06906239,0.0,70.25123
390,1389.0,232.05,0.06906239,0.0,70.250694
391,1390.0,232.05,0.06906239,0.0,70.25108
392,1391.0,232.05,0.06906239,0.0,70.25057
393,1392.0,232.05,0.06906239,0.0,70.250984
394,1393.0,232.05,0.06906239,0.0,70.250496
395,1394.0,232.05,0.06906239,0.0,70.25093
396,1395.0,232.05,0.06906239,0.0,70.25046
397,1396.0,232.05,0.06906239,0.0,70.25091
398,1397.0,232.05,0.06906239,0.0,70.25045
399,1398.0,232.05,0.06906239,0.0,70.250916
400,1399.0,232.05,0.06906239,0.0,70.25047
401,1400.0,232.05,0.06906239,0.0,70.250946
402,1401.0,232.05,0.06906239,0.0,70.25052
403,1402.0,232.05,0.06906239,0.0,70.251
404,1403.0,232.05,0.06906239,0.0,70.25057
405,1404.0,232.05,0.06906239,0.0,70.25107
406,1405.0,232.05,0.06906239,0.0,70.25065
407,1406.0,232.05,0.06906239,0.0,70.25115
408,1407.0,232.05,0.06906239,0.0,70.25074
409,1408.0,232.05,0.06906239,0.0,70.25124
410,1409.0,232.05,0.06906239,0.0,70.25083
411,1410.0,232.05,0.06906239,0.0,70.25047
412,1411.0,232.05,0.06906239,0.0,70.25102
413,1412.0,232.05,0.06906239,0.0,70.25066
414,1413.0,232.05,0.06906239,0.0,70.25121
415,1414.0,232.05,0.06906239,0.0,70.25085
416,1415.0,232.05,0.06906239,0.0,70.25053
417,1416.0,232.05,0.06906239,0.0,70.25111
418,1417.0,232.05,0.06906239,0.0,70.25078
419,1418.0,232.05,0.06906239,0.0,70.25049
420,1419.0,232.05,0.06906239,0.0,70.25111
421,1420.0,232.05,0.06906239,0.0,70.2508
422,1421.0,232.05,0.06906239,0.0,70.250534
423,1422.0,232.05,0.06906239,0.0,70.251175
424,1423.0,232.05,0.06906239,0.0,70.250885
425,1424.0,232.05,0.06906239,0.0,70.25064
426,1425.0,232.05,0.06906239,0.0,70.25043
427,1426.0,232.05,0.06906239,0.0,70.251114
428,1427.0,232.05,0.06906239,0.0,70.25087
429,1428.0,232.05,0.06906239,0.0,70.25066
430,1429.0,232.05,0.06906239,0.0,70.25049
431,1430.0,232.05,0.06906239,0.0,70.25034
432,1431.0,232.05,0.06906239,0.0,70.25108
433,1432.0,232.05,0.06906239,0.0,70.2509
434,1433.0,232.05,0.06906239,0.0,70.25075
435,1434.0,232.05,0.06906239,0.0,70.25062
436,1435.0,232.05,0.06906239,0.0,70.25051
437,1436.0,232.05,0.06906239,0.0,70.25043
438,1437.0,232.05,0.06906239,0.0,70.25037
439,1438.0,232.05,0.06906239,0.0,70.25032
440,1439.0,232.05,0.06906239,0.0,70.2503
441,1440.0,232.05,0.06906239,0.0,70.25028
442,1441.0,232.05,0.06906239,0.0,70.25029
443,1442.0,232.05,0.06906239,0.0,70.250305
444,1443.0,232.05,0.06906239,0.0,70.25033
445,1444.0,232.05,0.06906239,0.0,70.25037
446,1445.0,232.05,0.06906239,0.0,70.25042
447,1446.0,232.05,0.06906239,0.0,70.25047
448,1447.0,232.05,0.06906239,0.0,70.25054
449,1448.0,232.05,0.06906239,0.0,70.25061
450,1449.0,232.05,0.06906239,0.0,70.250694
451,1450.0,232.05,0.06906239,0.0,70.25078
452,1451.0,232.05,0.06906239,0.0,70.25086
453,1452.0,232.05,0.06906239,0.0,70.25096
454,1453.0,232.05,0.06906239,0.0,70.25106
455,1454.0,232.05,0.06906239,0.0,70.25116
456,1455.0,232.05,0.06906239,0.0,70.25127
457,1456.0,232.05,0.06906239,0.0,70.25137
458,1457.0,232.05,0.06906239,0.0,70.25149
459,1458.0,232.05,0.06906239,0.0,70.251595
460,1459.0,232.05,0.06906239,0.0,70.25172
461,1460.0,232.05,0.06906239,0.0,70.250946
462,1461.0,232.05,0.06906239,0.0,70.25113
463,1462.0,232.05,0.06906239,0.0,70.25131
464,1463.0,232.05,0.06906239,0.0,70.25149
465,1464.0,232.05,0.06906239,0.0,70.250786
466,1465.0,232.05,0.06906239,0.0,70.25102
467,1466.0,232.05,0.06906239,0.0,70.25125
468,1467.0,232.05,0.06906239,0.0,70.250595
469,1468.0,232.05,0.06906239,0.0,70.25087
470,1469.0,232.05,0.06906239,0.0,70.25114
471,1470.0,232.05,0.06906239,0.0,70.25052
472,1471.0,232.05,0.06906239,0.0,70.25083
473,1472.0,232.05,0.06906239,0.0,70.25113
474,1473.0,232.05,0.06906239,0.0,70.250534
475,1474.0,232.05,0.06906239,0.0,70.25087
